-0.21-0.2-0.14-0.07-0.010.030.070.0850.025-0.00500.040.045-0.03-0.105-0.11-0.13-0.23-0.32-0.38-0.445-0.455-0.44-0.405-0.375-0.375-0.4-0.44-0.425-0.37-0.275-0.19-0.17-0.195-0.26-0.29-0.255-0.120.0350.07-0.02-0.18-0.29-0.235-0.0350.2850.4750.355-0.075-0.575-0.83-0.805-0.655-0.46-0.275-0.165-0.16-0.15-0.0750.010.055-0.015-0.205-0.37-0.45-0.395-0.275-0.17-0.12-0.105-0.105-0.1-0.09-0.05-0.010-0.01-0.0050.0550.0850.0850.0450.010.110.3250.560.6850.740.5850.305-0.015-0.19-0.265-0.27-0.29-0.27-0.1850.0050.250.450.3550.09-0.15-0.26-0.205-0.070-0.01-0.05-0.0250.060.190.2350.20.140.10.1350.1550.160.150.2250.410.5450.4050.170.1250.3250.5050.5650.470.225-0.145-0.47-0.58-0.455-0.25-0.115-0.040.0350.120.1150.090.10.1450.210.220.13-0.01-0.050.040.1550.180.1450.1150.130.1350.110.045-0.035-0.06-0.0350.030.1050.150.1650.1750.1850.190.2150.210.180.1650.1850.340.721.131.2250.7550.115-0.525-0.745-0.55-0.220.010.04-0.005-0.025-0.0150.00500.0050.030.0450.0650.0850.0650.060.050.050.0550.060.040.040.030.0550.1050.170.280.540.860.880.455-0.16-0.55-0.555-0.280.0150.1050.03-0.105-0.17-0.18-0.145-0.085-0.0350.020.0450.03-0.015-0.0250.0350.0750.0450.0150.0250.0350.050.0450.0250.0050.0250.090.190.270.320.390.6150.9251.120.9250.465-0.015-0.315-0.39-0.325-0.22-0.145-0.16-0.26-0.365-0.345-0.0750.340.430.145-0.125-0.22-0.2-0.175-0.11-0.045-0.01500.020.035-0.015-0.03-0.02-0.0050.020.0550.160.3950.6250.6350.4350.160.0250.120.260.21-0.045-0.385-0.56-0.49-0.285-0.155-0.13-0.155-0.215-0.23-0.22-0.17-0.115-0.09-0.07-0.065-0.065-0.075-0.09-0.09-0.080.0050.160.340.480.50.3850.215-0.015-0.335-0.615-0.725-0.635-0.395-0.165-0.07-0.07-0.145-0.21-0.23-0.22-0.22-0.225-0.22-0.175-0.105-0.03500.0650.180.340.4250.3550.085-0.3-0.575-0.66-0.555-0.435-0.345-0.325-0.32-0.26-0.15-0.085-0.095-0.13-0.165-0.15-0.13-0.13-0.13-0.09-0.04-0.05-0.07-0.07-0.055-0.035-0.04-0.010.0350.160.2450.2350.140.070.0650.080.1150.170.2450.280.3050.3450.3450.3250.240.015-0.245-0.445-0.485-0.36-0.215-0.13-0.08-0.055-0.0150.020.0250.020.0250.03-0.005-0.03-0.0250.0150.0350.0150.020.060.0850.10.0850.090.0750.110.250.360.2850.075-0.105-0.175-0.125-0.075-0.11-0.115-0.0250.080.0950.0650.030.020.040.0550.0550.0850.160.2750.310.1850.025-0.09-0.1-0.040.040.110.1950.350.520.540.3450.005-0.195-0.21-0.13-0.07-0.07-0.040.0350.190.340.390.21-0.055-0.25-0.235-0.08-0.01-0.095-0.21-0.215-0.12-0.0250-0.020.0050.0650.1450.240.360.3950.2650.055-0.125-0.23-0.235-0.19-0.10500.1650.3350.4050.3350.1-0.14-0.32-0.35-0.170.160.50.630.4550.055-0.31-0.48-0.425-0.33-0.24-0.14-0.085-0.045-0.010.0150.040.060.0650.015-0.015-0.045-0.0250.0750.1650.1850.1350.005-0.105-0.135-0.030.1550.4450.750.8750.720.370.005-0.205-0.205-0.115-0.030.0150.090.180.2350.220.150.10.090.090.04-0.015-0.0150.2050.450.3450.01-0.205-0.140.0950.310.285-0.01-0.355-0.55-0.505-0.35-0.205-0.16-0.135-0.09-0.0550.020.150.230.2350.115-0.05-0.19-0.265-0.275-0.235-0.19-0.15-0.135-0.11-0.105-0.07-0.010.070.080.01-0.07-0.16-0.2-0.19-0.16-0.13-0.125-0.135-0.13-0.125-0.12-0.13-0.13-0.11-0.08-0.03-0.0050-0.04-0.095-0.15-0.205-0.245-0.285-0.29-0.25-0.22-0.19-0.205-0.22-0.25-0.24-0.22-0.2-0.205-0.21-0.2-0.17-0.155-0.165-0.175-0.195-0.155-0.0350.130.2550.2950.22-0.025-0.325-0.5-0.52-0.44-0.315-0.26-0.285-0.35-0.375-0.34-0.265-0.235-0.21-0.18-0.155-0.14-0.14-0.14-0.135-0.115-0.08-0.05-0.045-0.04-0.04-0.05-0.04-0.05-0.03-0.0150.0150.0650.1150.120.1050.0750.0850.190.430.6250.570.24-0.125-0.37-0.435-0.355-0.27-0.225-0.185-0.135-0.095-0.075-0.055-0.06-0.06-0.04-0.02-0.005-0.01-0.01-0.010.0150.01500.0150.0150.020.050.070.110.1350.1850.2550.3350.360.310.1950.05-0.08-0.135-0.12-0.09-0.08-0.09-0.075-0.055-0.0050.0350.0550.0450.040.0550.0550.040.030.020.030.050.0550.070.060.0450.0350.0350.0350.030.040.0350.0450.0550.070.070.060.0550.040.0450.070.0950.0950.0850.080.0950.1150.1250.0950.0750.080.1250.230.350.4050.3550.2450.120.01-0.095-0.165-0.195-0.21-0.18-0.115-0.075-0.04-0.03-0.045-0.045-0.03-0.0050.010.0050.0050.0050-0.01-0.01-0.025-0.03-0.020.0050-0.005-0.03-0.03-0.035-0.025-0.015-0.03-0.035-0.04-0.035-0.03-0.02-0.02-0.03-0.025-0.020.005-0.01-0.015-0.045-0.055-0.06-0.045-0.02-0.01-0.01-0.03-0.04-0.025-0.015-0.02-0.015-0.025-0.020-0.0050.005000.020.0450.0650.0750.080.1250.1850.2550.280.280.2650.2750.30.3250.320.380.6350.820.570.125-0.18-0.315-0.375-0.42-0.43-0.385-0.355-0.335-0.275-0.205-0.135-0.095-0.08-0.085-0.1-0.11-0.095-0.065-0.06-0.065-0.065-0.055-0.04-0.04-0.045-0.045-0.045-0.07-0.08-0.06-0.065-0.075-0.075-0.075-0.085-0.08-0.085-0.1-0.125-0.125-0.12-0.12-0.105-0.11-0.12-0.14-0.14-0.12-0.125-0.12-0.115-0.11-0.1-0.1-0.105-0.15-0.19-0.205-0.205-0.195-0.19-0.195-0.21-0.215-0.18-0.16-0.165-0.17-0.18-0.195-0.195-0.19-0.19-0.195-0.23-0.235-0.205-0.175-0.165-0.185-0.205-0.215-0.21-0.19-0.17-0.18-0.185-0.18-0.17-0.15-0.155-0.18-0.17-0.175-0.15-0.145-0.14-0.12-0.13-0.135-0.125-0.11-0.09-0.08-0.075-0.06-0.05-0.04-0.03-0.02-0.02-0.015-0.0050.020.0450.040.030.0150.0150.0250.030.0250.0350.040.040.0450.030.0250.010.0250.030.0250.0250.050.0750.090.0850.090.0650.0450.020.0150.010.0250.020.020.0250.0250.0450.0550.050.0450.0350.020.0350.060.0750.10.10.10.10.120.120.110.0950.090.1150.130.1450.160.140.140.140.1350.150.1450.140.1450.160.190.1950.210.1850.1750.1750.1750.1750.180.180.170.1850.20.2050.210.2050.2050.2050.210.210.2050.1950.1750.1750.190.2250.2150.20.2050.180.1650.1250.140.160.190.210.2050.20.1850.160.140.140.1450.1650.170.1550.1350.1150.1150.120.1450.170.170.160.150.140.110.0850.0950.130.1450.1450.10.0650.0550.10.130.1250.1250.10.0750.080.090.10.0850.0650.050.050.0650.10.120.120.1050.10.1050.0950.090.0850.080.0750.110.130.1350.1150.0850.090.10.1050.140.140.140.1650.180.180.1950.230.30.360.4150.4450.4450.4250.430.4550.4950.560.8351.040.830.36-0.01-0.195-0.295-0.37-0.39-0.32-0.245-0.22-0.195-0.165-0.115-0.065-0.020.010.0150.0350.0250.040.030.0150.0050.0050.020.020.040.030.030.0250.020.040.0650.0650.050.01-0.015-0.02500.015-0.01-0.055-0.085-0.075-0.025-0.015-0.01-0.025-0.035-0.04-0.02-0.025-0.015-0.025-0.05-0.045-0.03-0.035-0.055-0.09-0.11-0.09-0.06-0.045-0.05-0.06-0.09-0.09-0.09-0.105-0.115-0.12-0.095-0.07-0.055-0.05-0.06-0.065-0.065-0.06-0.075-0.105-0.125-0.105-0.08-0.065-0.065-0.08-0.11-0.125-0.12-0.075-0.06-0.055-0.055-0.065-0.05-0.04-0.035-0.03-0.025-0.02-0.02-0.0050.0050.030.030.030.060.0850.0750.060.0650.080.090.080.0750.090.1150.1250.140.1450.170.170.1650.1450.150.190.220.2050.1650.1450.150.1750.1950.2150.280.3150.290.1950.0950.0750.1150.1550.160.1450.1250.1250.1350.170.210.240.230.1850.150.1650.1950.230.240.2450.250.270.2650.2350.2050.1750.1950.2050.220.2050.180.160.1650.180.170.190.20.190.2250.280.3150.2750.210.180.190.230.2450.2250.1650.140.150.180.1750.170.1750.170.20.240.30.3450.340.250.150.110.170.230.250.2350.2350.2150.190.190.1950.1850.1650.110.110.1250.150.1650.210.230.2150.120.060.0450.090.1550.180.1850.1450.10.070.060.0750.1050.1250.1350.1250.1150.150.2150.2350.125-0.01-0.065-0.0150.0750.1250.1150.080.0850.1250.150.1050.0950.090.110.090.0750.0950.140.1850.1650.075-0.0050.0150.090.1250.0750.0450.0750.1150.1150.090.070.1050.1650.1950.1950.2050.2750.370.390.370.3350.3750.4050.4150.3750.3550.330.270.2850.4750.490.11-0.27-0.375-0.345-0.295-0.26-0.23-0.165-0.1-0.0500.040.090.0950.060.0550.0350.020.0250.030.0350.005-0.0050.0250.0650.04-0.035-0.115-0.11-0.0150.0850.090.015-0.045-0.07-0.0150.0250.030.005-0.02-0.015-0.02-0.02-0.025-0.01-0.025-0.020.0050.0350.02-0.055-0.105-0.085-0.045-0.025-0.045-0.065-0.105-0.105-0.09-0.08-0.08-0.075-0.09-0.11-0.11-0.085-0.07-0.08-0.115-0.125-0.115-0.11-0.095-0.075-0.085-0.085-0.085-0.1-0.1-0.1-0.11-0.115-0.095-0.055-0.045-0.035-0.045-0.04-0.05-0.045-0.035-0.045-0.025-0.045-0.05-0.04-0.0050.0150.0150.0050.0150.010.020.0450.070.0750.0850.10.0850.080.070.0850.10.140.1650.1450.1050.070.0450.0950.1450.20.20.1450.060.0550.0950.1550.150.120.1150.130.1550.160.150.140.1450.1350.120.1350.130.130.1350.150.150.170.1550.160.1850.20.210.1950.1550.120.140.170.20.210.1750.150.1750.190.170.140.130.1550.1850.190.1650.1650.1450.120.120.1350.1450.160.1650.170.180.20.20.190.150.0750.0850.1250.1750.2050.180.160.1450.140.1250.1350.130.1350.1350.140.1350.1150.10.090.110.140.130.120.1250.120.1350.140.140.1150.080.090.10.1050.0950.0650.030.040.0950.120.1150.10.0750.080.0850.0850.090.080.070.0750.0850.0750.080.080.0550.060.0850.0950.080.0750.0650.060.0650.0650.0650.070.090.0850.0750.0750.070.080.0850.080.10.1250.1350.1250.140.1650.2150.250.310.3450.360.370.3850.4050.420.4350.4350.4150.3750.3050.2750.430.5050.185-0.18-0.335-0.295-0.225-0.175-0.135-0.0750.0150.090.160.2350.230.210.160.1150.090.080.0750.050.01-0.025-0.06-0.055-0.02-0.03-0.035-0.010-0.005-0.02-0.0050.010.0050.0150.0150.0150.0250.0250.01-0.015-0.035-0.03-0.015-0.03-0.065-0.08-0.085-0.06-0.0350.005-0.01-0.025-0.035-0.03-0.025-0.02-0.015-0.035-0.055-0.08-0.065-0.055-0.055-0.075-0.09-0.085-0.075-0.06-0.05-0.065-0.105-0.12-0.115-0.09-0.065-0.08-0.115-0.135-0.12-0.11-0.09-0.1-0.09-0.1-0.065-0.06-0.055-0.06-0.07-0.085-0.06-0.04-0.03-0.0150.0050.0150.0450.0550.0350.030.020.030.060.0850.0650.0650.060.0450.050.0450.060.0850.1150.1450.160.1550.140.1250.1150.1050.1150.1150.1150.120.110.1150.1150.150.140.160.150.1450.160.180.1750.170.1650.1550.1750.1950.20.1850.1550.120.130.150.160.150.1450.150.170.1750.170.1650.1550.140.1450.160.170.1750.160.1350.1250.1450.1450.130.1050.0850.10.130.1450.160.140.130.1150.1250.110.130.1350.1350.1350.140.140.140.1350.1250.140.150.1450.140.150.140.1550.140.1350.110.110.090.1050.110.120.0950.080.080.10.1150.1150.110.10.10.10.110.10.10.0950.090.0850.0850.090.0650.0650.0550.0650.060.0550.0450.0450.0550.070.080.0650.0550.0350.020.0250.050.050.060.060.040.0450.080.0750.070.070.0550.0550.080.0750.060.0450.0350.040.050.040.0450.0350.040.090.1150.1150.1050.1050.1250.170.210.270.330.3650.4150.450.460.4650.4650.4750.450.430.520.760.8250.4750.03-0.265-0.365-0.4-0.415-0.4-0.375-0.31-0.245-0.195-0.145-0.105-0.075-0.035-0.01-0.01-0.02-0.025-0.0050.0350.0450.040.035-0.005-0.005-0.025-0.02-0.0050.0150.020.020.010.0050-0.005-0.025-0.04-0.03-0.01-0.015-0.025-0.045-0.05-0.055-0.055-0.045-0.06-0.075-0.085-0.075-0.055-0.05-0.055-0.065-0.055-0.07-0.09-0.085-0.07-0.075-0.095-0.08-0.09-0.09-0.11-0.135-0.155-0.13-0.1-0.08-0.08-0.1-0.125-0.115-0.115-0.115-0.125-0.13-0.13-0.105-0.115-0.115-0.13-0.14-0.145-0.12-0.11-0.1-0.1-0.09-0.075-0.065-0.07-0.08-0.08-0.085-0.0650.0050.090.1550.1850.140.045-0.045-0.09-0.11-0.105-0.095-0.055-0.020.020.0250.040.040.0550.0850.110.1150.0950.070.0750.10.1250.1350.1350.1350.1250.130.130.1250.1250.1350.1550.1650.1650.140.1250.090.080.1050.1450.2150.3350.4650.5050.4450.290.095-0.045-0.1-0.085-0.030.0250.0550.060.060.050.0750.0950.1050.120.120.1150.1150.120.120.110.0950.0950.1150.160.1850.210.2050.1950.1950.230.2150.1750.110.0650.0650.060.060.0750.060.0750.080.090.0850.090.1050.1050.110.140.1550.20.330.530.6750.6450.440.175-0.075-0.225-0.22-0.125-0.020.060.1250.150.1250.0650.020.010.060.10.150.160.130.090.0250.00500.0250.040.050.060.10.150.170.2050.2750.3350.3150.230.085-0.05-0.12-0.0550.060.1850.2250.140-0.09-0.11-0.085-0.045-0.020.010-0.010.010.0250.040.0450.0250.005-0.015-0.00500.0050.0150.0250.0750.080.050.015-0.03-0.05-0.045-0.0250.0050.020.020.070.160.330.5550.6350.450.105-0.165-0.22-0.0250.270.4950.6951.011.0850.7750.4550.3550.420.4450.3050.065-0.23-0.43-0.525-0.53-0.495-0.44-0.4-0.37-0.355-0.315-0.26-0.19-0.12-0.060.0350.120.1550.150.08-0.03-0.1-0.13-0.165-0.21-0.19-0.18-0.165-0.14-0.13-0.135-0.11-0.12-0.11-0.1-0.08-0.075-0.075-0.09-0.11-0.095-0.08-0.1-0.095-0.095-0.125-0.145-0.15-0.155-0.16-0.15-0.145-0.14-0.125-0.1-0.06-0.020.030.080.075-0.01-0.18-0.33-0.4-0.39-0.31-0.245-0.22-0.255-0.27-0.275-0.245-0.195-0.12-0.0150.0750.06-0.06-0.235-0.325-0.345-0.24-0.080.020.035-0.01-0.08-0.18-0.24-0.325-0.42-0.475-0.475-0.42-0.32-0.235-0.195-0.185-0.195-0.215-0.22-0.205-0.215-0.18-0.145-0.030.1250.250.2650.2050.1-0.025-0.135-0.2-0.22-0.19-0.16-0.145-0.12-0.020.1450.3250.390.25-0.07-0.34-0.455-0.425-0.325-0.2-0.08500-0.05-0.125-0.15-0.145-0.11-0.085-0.065-0.055-0.045-0.02-0.02-0.03-0.015-0.020.0050.0750.160.170.130.0650.0350.040.035-0.055-0.125-0.165-0.135-0.0150.140.230.2150.1450.035-0.025-0.04500.0650.0950.05-0.065-0.2-0.275-0.28-0.23-0.175-0.125-0.085-0.05-0.035-0.04-0.05-0.035-0.0300.020.0350.0750.1450.210.2250.190.08-0.065-0.19-0.23-0.175-0.0550.0650.140.1250.06-0.015-0.05-0.0150.060.1050.0850.040.0250.0450.040.0350-0.065-0.14-0.225-0.26-0.225-0.15-0.08-0.035-0.085-0.135-0.135-0.105-0.1-0.085-0.1-0.11-0.08-0.0450.010.0650.1050.0950.06-0.005-0.065-0.125-0.17-0.120.0050.1050.160.1350.090.045-0.04-0.165-0.285-0.35-0.35-0.315-0.245-0.175-0.14-0.13-0.135-0.125-0.115-0.075-0.09-0.1-0.12-0.0950.0150.150.2650.2350.05-0.145-0.195-0.090.110.2850.370.6050.8750.7650.4650.3350.340.3950.420.4250.370.2850.145-0.06-0.3-0.555-0.795-0.915-0.885-0.72-0.52-0.345-0.295-0.285-0.295-0.275-0.255-0.21-0.14-0.0150.130.20.12-0.065-0.26-0.38-0.38-0.315-0.225-0.13-0.07-0.065-0.1-0.155-0.16-0.12-0.085-0.055-0.065-0.105-0.165-0.22-0.255-0.235-0.165-0.070.0250.04-0.015-0.085-0.17-0.245-0.345-0.375-0.345-0.225-0.0950.005-0.03-0.125-0.28-0.39-0.46-0.435-0.39-0.32-0.28-0.25-0.24-0.195-0.13-0.0350.040.05-0.02-0.15-0.23-0.245-0.235-0.205-0.185-0.175-0.13-0.040.0350.045-0.105-0.3-0.43-0.435-0.39-0.345-0.305-0.25-0.21-0.22-0.29-0.36-0.44-0.46-0.41-0.335-0.285-0.245-0.24-0.235-0.235-0.21-0.2-0.17-0.155-0.115-0.095-0.08-0.105-0.115-0.115-0.135-0.105-0.09-0.065-0.07-0.065-0.06-0.0300.0150.0150.0150.0050.020.040.1050.20.3250.390.2850.02-0.235-0.38-0.38-0.305-0.2-0.12-0.08-0.06-0.03-0.035-0.035-0.02-0.010.005-0.0050.0050.005-0.005-0.005-0.005-0.01-0.00500.0050.0150.0250.040.0350.0450.0850.1250.20.250.2150.095-0.045-0.12-0.135-0.090.010.10.1450.120.055-0.02-0.065-0.08-0.075-0.08-0.095-0.085-0.06-0.045-0.010.0350.050.0550.025-0.025-0.06-0.08-0.07-0.07-0.05-0.02-0.005-0.005-0.015-0.02-0.0150.020.050.060.050.040.030.0550.0950.1250.130.1350.1450.180.220.1950.09-0.065-0.235-0.315-0.305-0.24-0.175-0.15-0.125-0.09-0.055-0.05-0.055-0.07-0.075-0.07-0.065-0.08-0.085-0.09-0.075-0.05-0.035-0.05-0.07-0.095-0.09-0.08-0.07-0.075-0.1-0.12-0.13-0.13-0.1-0.08-0.07-0.07-0.08-0.065-0.065-0.065-0.065-0.07-0.06-0.04-0.010.0450.1250.230.2950.2150.05-0.15-0.3-0.345-0.29-0.195-0.105-0.045-0.03-0.045-0.07-0.085-0.055-0.0250.050.2150.5150.770.760.6150.510.4950.5050.480.450.410.410.390.370.330.30.2050.06-0.105-0.255-0.395-0.495-0.58-0.615-0.63-0.62-0.565-0.51-0.46-0.405-0.35-0.28-0.23-0.195-0.185-0.19-0.2-0.19-0.175-0.15-0.135-0.115-0.105-0.11-0.115-0.11-0.105-0.12-0.125-0.125-0.125-0.115-0.1-0.08-0.07-0.06-0.065-0.08-0.12-0.175-0.205-0.195-0.145-0.09-0.06-0.085-0.12-0.16-0.19-0.175-0.16-0.15-0.115-0.105-0.1-0.095-0.13-0.15-0.17-0.155-0.125-0.105-0.115-0.14-0.155-0.15-0.135-0.11-0.115-0.11-0.115-0.125-0.1-0.105-0.11-0.11-0.135-0.135-0.125-0.105-0.1-0.11-0.12-0.13-0.105-0.09-0.065-0.07-0.075-0.075-0.05-0.04-0.05-0.05-0.05-0.030.0050.0350.0250.005-0.045-0.045-0.010-0.0050.030.060.1050.140.1550.1850.2050.1750.20.270.330.3450.270.1950.170.1950.2650.3050.3350.340.3750.4250.420.3750.330.350.4150.4550.4350.410.4350.4450.4550.490.540.5850.580.5150.490.5450.590.620.630.6250.6450.6650.660.610.550.550.610.660.6850.690.710.6950.630.6150.6550.6650.650.620.650.7050.730.730.7050.710.7150.660.590.5950.640.70.740.790.820.7250.620.530.5750.6350.680.670.660.6650.6850.710.720.710.710.690.650.6450.660.6750.660.6450.660.680.710.730.7150.6750.6750.680.70.7150.6950.6850.6750.70.6950.6950.690.7050.720.7250.710.6750.6750.6950.6750.6350.6050.60.620.6550.70.770.7950.7050.5650.4750.50.570.620.610.5750.5650.560.570.580.60.620.6150.60.60.6150.650.6850.710.7050.6950.6450.620.610.630.6650.750.8050.790.710.6050.540.520.5450.590.590.560.5550.590.6550.6850.6650.5950.5450.681.0151.21.0450.820.7450.8050.880.890.870.8350.8050.7950.8150.8750.991.081.0250.80.610.5650.630.660.640.6350.6250.5750.470.3750.280.1750.1350.1450.1750.210.2250.2450.260.3150.3650.4350.460.4750.5350.620.650.5750.4650.470.5750.710.710.590.450.450.5650.6850.770.7550.5950.4050.340.4050.4950.5050.5050.520.5750.6550.7150.6750.5150.360.3650.4750.5650.610.60.5650.480.420.410.4350.450.4550.490.5550.630.680.660.570.4550.390.390.4550.510.5550.5750.5150.4250.360.360.40.460.4850.530.5950.620.5250.3650.20.180.2450.350.4350.460.490.5250.5250.460.3850.3850.50.590.5750.4950.480.570.670.6650.540.4350.450.5150.530.510.460.460.550.740.8650.7650.4450.2150.2850.490.570.510.420.430.4950.5750.5850.570.50.4750.480.4550.4050.370.3950.480.5450.6150.6750.660.460.16-0.010.0850.320.4550.450.4150.4050.4250.3850.3250.2550.2150.2850.40.4550.4250.3650.40.4750.5550.5750.5450.410.2350.20.2950.380.4050.370.3650.420.480.4850.450.420.4050.4350.4650.4650.4550.4350.430.450.4450.420.350.350.3650.410.440.390.340.280.280.2950.310.30.3150.3050.2950.320.360.3850.3950.370.330.3150.3150.3150.340.3250.320.320.3250.3050.30.310.350.3750.360.3050.2650.240.240.240.2650.3250.4350.530.490.3450.170.0850.140.2750.340.3350.290.250.2650.30.3650.4250.420.3450.2350.1350.1350.1850.230.2350.210.2050.2150.2250.220.1950.1850.2050.2650.310.330.3150.30.30.3250.330.2850.2550.2750.3150.340.3250.320.2750.230.160.20.530.910.930.6850.5250.510.5550.5550.5050.5050.560.6650.7550.7450.6150.480.440.50.5950.690.760.7150.5350.320.2350.20.14-0.025-0.155-0.215-0.2-0.19-0.195-0.16-0.09500.060.070.070.130.2050.2550.2350.230.2150.2250.210.180.160.150.130.1250.140.160.220.2750.2750.250.230.2550.2650.2150.1550.170.230.2450.2150.160.140.1750.1650.1650.1950.2550.2950.2250.160.1350.160.190.2050.220.2350.240.2350.2350.190.1550.1250.130.1750.210.20.150.0950.130.1950.2350.20.1650.160.185